step    Monochromator-step  cps
1.000	5700.000	7130.000
2.000	5700.400	6860.000
3.000	5700.800	8980.000
4.000	5701.200	82670.000
5.000	5701.600	17230.000
6.000	5702.000	7080.000
7.000	5702.400	7250.000
8.000	5702.800	7190.000
9.000	5703.200	7590.000
10.000	5703.600	6970.000
11.000	5704.000	7020.000
12.000	5704.400	7200.000
13.000	5704.800	7770.000
14.000	5705.200	7430.000
15.000	5705.600	8380.000
16.000	5706.000	8110.000
17.000	5706.400	8270.000
18.000	5706.800	8240.000
19.000	5707.200	8790.000
20.000	5707.600	9430.000
21.000	5708.000	10150.000
22.000	5708.400	10880.000
23.000	5708.800	10150.000
24.000	5709.200	11430.000
25.000	5709.600	13010.000
26.000	5710.000	11940.000
27.000	5710.400	12990.000
28.000	5710.800	13880.000
29.000	5711.200	14210.000
30.000	5711.600	15000.000
31.000	5712.000	16170.000
32.000	5712.400	17820.000
33.000	5712.800	17950.000
34.000	5713.200	18970.000
35.000	5713.600	20390.000
36.000	5714.000	21570.000
37.000	5714.400	24210.000
38.000	5714.800	25780.000
39.000	5715.200	28300.000
40.000	5715.600	31540.000
41.000	5716.000	33940.000
42.000	5716.400	37920.000
43.000	5716.800	41610.000
44.000	5717.200	46380.000
45.000	5717.600	52430.000
46.000	5718.000	55570.000
47.000	5718.400	64290.000
48.000	5718.800	74550.000
49.000	5719.200	84830.000
50.000	5719.600	99100.000
51.000	5720.000	114480.000
52.000	5720.400	135250.000
53.000	5720.800	164830.000
54.000	5721.200	211600.000
55.000	5721.600	267220.000
56.000	5722.000	346360.000
57.000	5722.400	462770.000
58.000	5722.800	624030.000
59.000	5723.200	864910.000
60.000	5723.600	1310980.000
61.000	5724.000	2099400.000
62.000	5724.400	5701510.000
63.000	5724.800	10286680.000
64.000	5725.200	14192460.000
65.000	5725.600	2758640.000
66.000	5726.000	747560.000
67.000	5726.400	308430.000
68.000	5726.800	173010.000
69.000	5727.200	122470.000
70.000	5727.600	113050.000
71.000	5728.000	157350.000
72.000	5728.400	186310.000
73.000	5728.800	135800.000
74.000	5729.200	107680.000
75.000	5729.600	90010.000
76.000	5730.000	74870.000
77.000	5730.400	65030.000
78.000	5730.800	52410.000
79.000	5731.200	43930.000
80.000	5731.600	37280.000
81.000	5732.000	31560.000
82.000	5732.400	28960.000
83.000	5732.800	26770.000
84.000	5733.200	24560.000
85.000	5733.600	22520.000
86.000	5734.000	21530.000
87.000	5734.400	20210.000
88.000	5734.800	20190.000
89.000	5735.200	19310.000
90.000	5735.600	19310.000
91.000	5736.000	18180.000
92.000	5736.400	16930.000
93.000	5736.800	16140.000
94.000	5737.200	17050.000
95.000	5737.600	15620.000
96.000	5738.000	15640.000
97.000	5738.400	16010.000
98.000	5738.800	15900.000
99.000	5739.200	16930.000
100.000	5739.600	15870.000
101.000	5740.000	16960.000
102.000	5740.400	19980.000
103.000	5740.800	115620.000
104.000	5741.200	41030.000
105.000	5741.600	18250.000
106.000	5742.000	17430.000
107.000	5742.400	18210.000
108.000	5742.800	19750.000
109.000	5743.200	20870.000
110.000	5743.600	23740.000
111.000	5744.000	27000.000
112.000	5744.400	128270.000
113.000	5744.800	135090.000
114.000	5745.200	1336130.000
115.000	5745.600	192400.000
116.000	5746.000	31290.000
117.000	5746.400	29320.000
118.000	5746.800	29750.000
119.000	5747.200	30400.000
120.000	5747.600	34040.000
121.000	5748.000	35970.000
122.000	5748.400	40880.000
123.000	5748.800	44820.000
124.000	5749.200	52570.000
125.000	5749.600	60550.000
126.000	5750.000	70960.000
127.000	5750.400	85960.000
128.000	5750.800	106100.000
129.000	5751.200	136330.000
130.000	5751.600	182690.000
131.000	5752.000	237190.000
132.000	5752.400	320630.000
133.000	5752.800	485720.000
134.000	5753.200	754500.000
135.000	5753.600	1774080.000
136.000	5754.000	14820670.000
137.000	5754.400	14688040.000
138.000	5754.800	1074990.000
139.000	5755.200	231260.000
140.000	5755.600	85000.000
141.000	5756.000	45850.000
142.000	5756.400	35430.000
143.000	5756.800	38430.000
144.000	5757.200	60070.000
145.000	5757.600	78030.000
146.000	5758.000	56790.000
147.000	5758.400	46200.000
148.000	5758.800	39000.000
149.000	5759.200	32840.000
150.000	5759.600	29020.000
151.000	5760.000	24600.000
152.000	5760.400	20800.000
153.000	5760.800	18700.000
154.000	5761.200	16980.000
155.000	5761.600	16730.000
156.000	5762.000	14430.000
157.000	5762.400	14500.000
158.000	5762.800	13630.000
159.000	5763.200	12890.000
160.000	5763.600	12690.000
161.000	5764.000	11990.000
162.000	5764.400	12640.000
163.000	5764.800	12230.000
164.000	5765.200	11400.000
165.000	5765.600	10840.000
166.000	5766.000	10710.000
167.000	5766.400	10360.000
168.000	5766.800	10560.000
169.000	5767.200	10140.000
170.000	5767.600	10150.000
171.000	5768.000	10130.000
172.000	5768.400	10240.000
173.000	5768.800	10000.000
174.000	5769.200	9970.000
175.000	5769.600	10350.000
176.000	5770.000	12860.000
177.000	5770.400	35540.000
178.000	5770.800	12030.000
179.000	5771.200	11340.000
180.000	5771.600	11730.000
181.000	5772.000	12920.000
182.000	5772.400	13720.000
183.000	5772.800	15210.000
184.000	5773.200	19660.000
185.000	5773.600	27360.000
186.000	5774.000	170650.000
187.000	5774.400	2039310.000
188.000	5774.800	1009100.000
189.000	5775.200	54660.000
190.000	5775.600	14770.000
191.000	5776.000	11980.000
192.000	5776.400	11710.000
193.000	5776.800	13120.000
194.000	5777.200	14210.000
195.000	5777.600	17990.000
196.000	5778.000	45060.000
197.000	5778.400	1248090.000
198.000	5778.800	383370.000
199.000	5779.200	17960.000
200.000	5779.600	10660.000
201.000	5780.000	9550.000
202.000	5780.400	8500.000
203.000	5780.800	8460.000
204.000	5781.200	7760.000
205.000	5781.600	8400.000
206.000	5782.000	8590.000
207.000	5782.400	8420.000
208.000	5782.800	8230.000
209.000	5783.200	8800.000
210.000	5783.600	8630.000
211.000	5784.000	8560.000
212.000	5784.400	9370.000
213.000	5784.800	11050.000
214.000	5785.200	19630.000
215.000	5785.600	522610.000
216.000	5786.000	166530.000
217.000	5786.400	10960.000
218.000	5786.800	8370.000
219.000	5787.200	7900.000
220.000	5787.600	7550.000
221.000	5788.000	7780.000
222.000	5788.400	8060.000
223.000	5788.800	7860.000
224.000	5789.200	8370.000
225.000	5789.600	8810.000
226.000	5790.000	9780.000
227.000	5790.400	13520.000
228.000	5790.800	236820.000
229.000	5791.200	313870.000
230.000	5791.600	14030.000
231.000	5792.000	8310.000
232.000	5792.400	7980.000
233.000	5792.800	7820.000
234.000	5793.200	6880.000
235.000	5793.600	7680.000
236.000	5794.000	7770.000
237.000	5794.400	7620.000
238.000	5794.800	7680.000
239.000	5795.200	7560.000
240.000	5795.600	7890.000
241.000	5796.000	7970.000
242.000	5796.400	7700.000
243.000	5796.800	7250.000
244.000	5797.200	8120.000
245.000	5797.600	8230.000
246.000	5798.000	8530.000
247.000	5798.400	7530.000
248.000	5798.800	8530.000
249.000	5799.200	8700.000
250.000	5799.600	9030.000
251.000	5800.000	9140.000
252.000	5800.400	9070.000
253.000	5800.800	9230.000
254.000	5801.200	10210.000
255.000	5801.600	11380.000
256.000	5802.000	11300.000
257.000	5802.400	11820.000
258.000	5802.800	11420.000
259.000	5803.200	11760.000
260.000	5803.600	13400.000
261.000	5804.000	14240.000
262.000	5804.400	13820.000
263.000	5804.800	13760.000
264.000	5805.200	14640.000
265.000	5805.600	17070.000
266.000	5806.000	19190.000
267.000	5806.400	77540.000
268.000	5806.800	54020.000
269.000	5807.200	22650.000
270.000	5807.600	23660.000
271.000	5808.000	26240.000
272.000	5808.400	28340.000
273.000	5808.800	30860.000
274.000	5809.200	34420.000
275.000	5809.600	37670.000
276.000	5810.000	42090.000
277.000	5810.400	46720.000
278.000	5810.800	52690.000
279.000	5811.200	89090.000
280.000	5811.600	101330.000
281.000	5812.000	81700.000
282.000	5812.400	96930.000
283.000	5812.800	117920.000
284.000	5813.200	146470.000
285.000	5813.600	183730.000
286.000	5814.000	242910.000
287.000	5814.400	325440.000
288.000	5814.800	436900.000
289.000	5815.200	625010.000
290.000	5815.600	945260.000
291.000	5816.000	1526050.000
292.000	5816.400	5495380.000
293.000	5816.800	9920540.000
294.000	5817.200	12824590.000
295.000	5817.600	1023480.000
296.000	5818.000	278070.000
297.000	5818.400	108080.000
298.000	5818.800	62960.000
299.000	5819.200	53200.000
300.000	5819.600	66790.000
301.000	5820.000	116430.000
302.000	5820.400	109700.000
303.000	5820.800	86330.000
304.000	5821.200	69870.000
305.000	5821.600	60920.000
306.000	5822.000	47360.000
307.000	5822.400	41220.000
308.000	5822.800	33980.000
309.000	5823.200	27880.000
310.000	5823.600	25650.000
311.000	5824.000	21320.000
312.000	5824.400	20090.000
313.000	5824.800	19540.000
314.000	5825.200	17650.000
315.000	5825.600	17000.000
316.000	5826.000	15780.000
317.000	5826.400	16010.000
318.000	5826.800	15650.000
319.000	5827.200	14910.000
320.000	5827.600	13810.000
321.000	5828.000	12810.000
322.000	5828.400	12130.000
323.000	5828.800	12530.000
324.000	5829.200	12170.000
325.000	5829.600	11850.000
326.000	5830.000	11940.000
327.000	5830.400	12610.000
328.000	5830.800	11340.000
329.000	5831.200	12790.000
330.000	5831.600	12460.000
331.000	5832.000	12230.000
332.000	5832.400	13180.000
333.000	5832.800	16320.000
334.000	5833.200	216790.000
335.000	5833.600	124160.000
336.000	5834.000	14720.000
337.000	5834.400	13480.000
338.000	5834.800	13830.000
339.000	5835.200	13900.000
340.000	5835.600	15690.000
341.000	5836.000	18130.000
342.000	5836.400	23410.000
343.000	5836.800	134440.000
344.000	5837.200	1343890.000
345.000	5837.600	120170.000
346.000	5838.000	63530.000
347.000	5838.400	16870.000
348.000	5838.800	16620.000
349.000	5839.200	16710.000
350.000	5839.600	17140.000
351.000	5840.000	18080.000
352.000	5840.400	19940.000
353.000	5840.800	21520.000
354.000	5841.200	22250.000
355.000	5841.600	24830.000
356.000	5842.000	26770.000
357.000	5842.400	30530.000
358.000	5842.800	37180.000
359.000	5843.200	40830.000
360.000	5843.600	49280.000
361.000	5844.000	61470.000
362.000	5844.400	79720.000
363.000	5844.800	105220.000
364.000	5845.200	140450.000
365.000	5845.600	208960.000
366.000	5846.000	780340.000
367.000	5846.400	2572590.000
368.000	5846.800	2647790.000
369.000	5847.200	14544670.000
370.000	5847.600	5786820.000
371.000	5848.000	291810.000
372.000	5848.400	82620.000
373.000	5848.800	35330.000
374.000	5849.200	23190.000
375.000	5849.600	20060.000
376.000	5850.000	22800.000
377.000	5850.400	36680.000
378.000	5850.800	35950.000
379.000	5851.200	28990.000
380.000	5851.600	23440.000
381.000	5852.000	20840.000
382.000	5852.400	18320.000
383.000	5852.800	15680.000
384.000	5853.200	14800.000
385.000	5853.600	12990.000
386.000	5854.000	27300.000
387.000	5854.400	14230.000
388.000	5854.800	10720.000
389.000	5855.200	9790.000
390.000	5855.600	9580.000
391.000	5856.000	9380.000
392.000	5856.400	10940.000
393.000	5856.800	10750.000
394.000	5857.200	9840.000
395.000	5857.600	10320.000
396.000	5858.000	9990.000
397.000	5858.400	12100.000
398.000	5858.800	15140.000
399.000	5859.200	38240.000
400.000	5859.600	986520.000
401.000	5860.000	168350.000
402.000	5860.400	12350.000
403.000	5860.800	8790.000
404.000	5861.200	8390.000
405.000	5861.600	7790.000
406.000	5862.000	8280.000
407.000	5862.400	8960.000
408.000	5862.800	13770.000
409.000	5863.200	249900.000
410.000	5863.600	331720.000
411.000	5864.000	13410.000
412.000	5864.400	7730.000
413.000	5864.800	6640.000
414.000	5865.200	6710.000
415.000	5865.600	5980.000
416.000	5866.000	6140.000
417.000	5866.400	6760.000
418.000	5866.800	6600.000
419.000	5867.200	6120.000
420.000	5867.600	6340.000
421.000	5868.000	6060.000
422.000	5868.400	6570.000
423.000	5868.800	5620.000
424.000	5869.200	6150.000
425.000	5869.600	5870.000
426.000	5870.000	6280.000
427.000	5870.400	6410.000
428.000	5870.800	6160.000
429.000	5871.200	6310.000
430.000	5871.600	6990.000
431.000	5872.000	7960.000
432.000	5872.400	67770.000
433.000	5872.800	192960.000
434.000	5873.200	9560.000
435.000	5873.600	6560.000
436.000	5874.000	5530.000
437.000	5874.400	5470.000
438.000	5874.800	5860.000
439.000	5875.200	5530.000
440.000	5875.600	5350.000
441.000	5876.000	5910.000
442.000	5876.400	5600.000
443.000	5876.800	5290.000
444.000	5877.200	5460.000
445.000	5877.600	5570.000
446.000	5878.000	5720.000
447.000	5878.400	5120.000
448.000	5878.800	5100.000
449.000	5879.200	5430.000
450.000	5879.600	5410.000
451.000	5880.000	5250.000
452.000	5880.400	5060.000
453.000	5880.800	5430.000
454.000	5881.200	5370.000
455.000	5881.600	5620.000
456.000	5882.000	5940.000
457.000	5882.400	5590.000
458.000	5882.800	5350.000
459.000	5883.200	5680.000
460.000	5883.600	5220.000
461.000	5884.000	5520.000
462.000	5884.400	5690.000
463.000	5884.800	5960.000
464.000	5885.200	5770.000
465.000	5885.600	5650.000
466.000	5886.000	6540.000
467.000	5886.400	6090.000
468.000	5886.800	6560.000
469.000	5887.200	6510.000
470.000	5887.600	6360.000
471.000	5888.000	7030.000
472.000	5888.400	6730.000
473.000	5888.800	7390.000
474.000	5889.200	7540.000
475.000	5889.600	7270.000
476.000	5890.000	7600.000
477.000	5890.400	8000.000
478.000	5890.800	8100.000
479.000	5891.200	8550.000
480.000	5891.600	9240.000
481.000	5892.000	9840.000
482.000	5892.400	10290.000
483.000	5892.800	11520.000
484.000	5893.200	11480.000
485.000	5893.600	12620.000
486.000	5894.000	14230.000
487.000	5894.400	13930.000
488.000	5894.800	15640.000
489.000	5895.200	17340.000
490.000	5895.600	20860.000
491.000	5896.000	22190.000
492.000	5896.400	25700.000
493.000	5896.800	28170.000
494.000	5897.200	35300.000
495.000	5897.600	42310.000
496.000	5898.000	52170.000
497.000	5898.400	68450.000
498.000	5898.800	91280.000
499.000	5899.200	120010.000
500.000	5899.600	165530.000
501.000	5900.000	253210.000
502.000	5900.400	397050.000
503.000	5900.800	1012190.000
504.000	5901.200	13866030.000
505.000	5901.600	12930860.000
506.000	5902.000	563740.000
507.000	5902.400	125300.000
508.000	5902.800	45370.000
509.000	5903.200	24860.000
510.000	5903.600	19290.000
511.000	5904.000	19990.000
512.000	5904.400	32370.000
513.000	5904.800	39990.000
514.000	5905.200	30870.000
515.000	5905.600	25170.000
516.000	5906.000	22750.000
517.000	5906.400	18680.000
518.000	5906.800	16410.000
519.000	5907.200	13940.000
520.000	5907.600	13040.000
521.000	5908.000	10860.000
522.000	5908.400	10010.000
523.000	5908.800	9820.000
524.000	5909.200	9260.000
525.000	5909.600	8810.000
526.000	5910.000	8440.000
527.000	5910.400	8580.000
528.000	5910.800	8520.000
529.000	5911.200	8130.000
530.000	5911.600	9080.000
531.000	5912.000	8490.000
532.000	5912.400	8080.000
533.000	5912.800	7890.000
534.000	5913.200	11020.000
535.000	5913.600	8820.000
536.000	5914.000	7750.000
537.000	5914.400	7720.000
538.000	5914.800	7880.000
539.000	5915.200	7520.000
540.000	5915.600	7590.000
541.000	5916.000	7900.000
542.000	5916.400	7260.000
543.000	5916.800	8450.000
544.000	5917.200	27840.000
545.000	5917.600	55060.000
546.000	5918.000	9030.000
547.000	5918.400	8130.000
548.000	5918.800	8030.000
549.000	5919.200	7320.000
550.000	5919.600	7660.000
551.000	5920.000	7400.000
552.000	5920.400	7980.000
553.000	5920.800	8030.000
554.000	5921.200	7780.000
555.000	5921.600	7470.000
556.000	5922.000	7510.000
557.000	5922.400	7630.000
558.000	5922.800	7730.000
559.000	5923.200	7730.000
560.000	5923.600	8530.000
561.000	5924.000	9030.000
562.000	5924.400	7820.000
563.000	5924.800	7570.000
564.000	5925.200	8140.000
565.000	5925.600	8460.000
566.000	5926.000	8570.000
567.000	5926.400	9060.000
568.000	5926.800	9350.000
569.000	5927.200	8780.000
570.000	5927.600	8960.000
571.000	5928.000	8930.000
572.000	5928.400	9710.000
573.000	5928.800	9290.000
574.000	5929.200	9420.000
575.000	5929.600	9850.000
576.000	5930.000	10470.000
577.000	5930.400	9510.000
578.000	5930.800	11570.000
579.000	5931.200	11060.000
580.000	5931.600	11740.000
581.000	5932.000	13790.000
582.000	5932.400	12250.000
583.000	5932.800	12740.000
584.000	5933.200	13080.000
585.000	5933.600	13190.000
586.000	5934.000	15200.000
587.000	5934.400	15280.000
588.000	5934.800	16230.000
589.000	5935.200	18010.000
590.000	5935.600	35920.000
591.000	5936.000	164300.000
592.000	5936.400	27980.000
593.000	5936.800	22710.000
594.000	5937.200	25420.000
595.000	5937.600	26840.000
596.000	5938.000	29460.000
597.000	5938.400	31660.000
598.000	5938.800	33930.000
599.000	5939.200	38110.000
600.000	5939.600	42860.000
601.000	5940.000	49620.000
602.000	5940.400	56120.000
603.000	5940.800	64100.000
604.000	5941.200	76740.000
605.000	5941.600	91470.000
606.000	5942.000	115450.000
607.000	5942.400	146220.000
608.000	5942.800	188770.000
609.000	5943.200	248480.000
610.000	5943.600	331970.000
611.000	5944.000	465090.000
612.000	5944.400	707030.000
613.000	5944.800	1122820.000
614.000	5945.200	3559790.000
615.000	5945.600	12381500.000
616.000	5946.000	14212660.000
617.000	5946.400	1068620.000
618.000	5946.800	279970.000
619.000	5947.200	111380.000
620.000	5947.600	67030.000
621.000	5948.000	52040.000
622.000	5948.400	55880.000
623.000	5948.800	93380.000
624.000	5949.200	105670.000
625.000	5949.600	78580.000
626.000	5950.000	64470.000
627.000	5950.400	55870.000
628.000	5950.800	47290.000
629.000	5951.200	42380.000
630.000	5951.600	36410.000
631.000	5952.000	32180.000
632.000	5952.400	29730.000
633.000	5952.800	27660.000
634.000	5953.200	26760.000
635.000	5953.600	26600.000
636.000	5954.000	26140.000
637.000	5954.400	25830.000
638.000	5954.800	25490.000
639.000	5955.200	25240.000
640.000	5955.600	25530.000
641.000	5956.000	26220.000
642.000	5956.400	27260.000
643.000	5956.800	27900.000
644.000	5957.200	28320.000
645.000	5957.600	29370.000
646.000	5958.000	32930.000
647.000	5958.400	34550.000
648.000	5958.800	36070.000
649.000	5959.200	39410.000
650.000	5959.600	42790.000
651.000	5960.000	46120.000
652.000	5960.400	51300.000
653.000	5960.800	54570.000
654.000	5961.200	62660.000
655.000	5961.600	71230.000
656.000	5962.000	79490.000
657.000	5962.400	92930.000
658.000	5962.800	110530.000
659.000	5963.200	131740.000
660.000	5963.600	163970.000
661.000	5964.000	208240.000
662.000	5964.400	268420.000
663.000	5964.800	357930.000
664.000	5965.200	475340.000
665.000	5965.600	686450.000
666.000	5966.000	1038220.000
667.000	5966.400	1761140.000
668.000	5966.800	8946800.000
669.000	5967.200	9536120.000
670.000	5967.600	10182260.000
671.000	5968.000	992860.000
672.000	5968.400	292290.000
673.000	5968.800	129740.000
674.000	5969.200	81140.000
675.000	5969.600	68330.000
676.000	5970.000	83350.000
677.000	5970.400	139910.000
678.000	5970.800	126570.000
679.000	5971.200	100550.000
680.000	5971.600	81560.000
681.000	5972.000	69560.000
682.000	5972.400	58510.000
683.000	5972.800	51890.000
684.000	5973.200	42530.000
685.000	5973.600	36930.000
686.000	5974.000	32420.000
687.000	5974.400	30610.000
688.000	5974.800	26560.000
689.000	5975.200	26040.000
690.000	5975.600	24910.000
691.000	5976.000	23230.000
692.000	5976.400	22590.000
693.000	5976.800	22870.000
694.000	5977.200	21600.000
695.000	5977.600	20430.000
696.000	5978.000	19710.000
697.000	5978.400	18860.000
698.000	5978.800	19380.000
699.000	5979.200	17900.000
700.000	5979.600	17670.000
701.000	5980.000	17210.000
702.000	5980.400	17270.000
703.000	5980.800	16370.000
704.000	5981.200	17180.000
705.000	5981.600	15780.000
706.000	5982.000	16820.000
707.000	5982.400	16740.000
708.000	5982.800	17460.000
709.000	5983.200	17010.000
710.000	5983.600	16540.000
711.000	5984.000	16730.000
712.000	5984.400	16570.000
713.000	5984.800	15650.000
714.000	5985.200	16230.000
715.000	5985.600	23740.000
716.000	5986.000	21650.000
717.000	5986.400	16150.000
718.000	5986.800	16460.000
719.000	5987.200	15870.000
720.000	5987.600	16960.000
721.000	5988.000	17100.000
722.000	5988.400	17580.000
723.000	5988.800	88220.000
724.000	5989.200	104150.000
725.000	5989.600	17750.000
726.000	5990.000	16490.000
727.000	5990.400	16900.000
728.000	5990.800	16820.000
729.000	5991.200	17320.000
730.000	5991.600	17110.000
731.000	5992.000	18070.000
732.000	5992.400	17300.000
733.000	5992.800	17860.000
734.000	5993.200	18490.000
735.000	5993.600	17770.000
736.000	5994.000	18800.000
737.000	5994.400	19580.000
738.000	5994.800	20280.000
739.000	5995.200	21990.000
740.000	5995.600	22890.000
741.000	5996.000	24230.000
742.000	5996.400	27170.000
743.000	5996.800	29650.000
744.000	5997.200	36000.000
745.000	5997.600	42490.000
746.000	5998.000	54210.000
747.000	5998.400	74770.000
748.000	5998.800	121470.000
749.000	5999.200	1479240.000
750.000	5999.600	8420420.000
751.000	6000.000	528560.000
752.000	6000.400	63930.000
753.000	6000.800	36190.000
754.000	6001.200	30630.000
755.000	6001.600	29400.000
756.000	6002.000	29890.000
757.000	6002.400	32150.000
758.000	6002.800	35240.000
759.000	6003.200	37940.000
760.000	6003.600	38300.000
761.000	6004.000	37540.000
762.000	6004.400	41150.000
763.000	6004.800	43200.000
764.000	6005.200	46820.000
765.000	6005.600	49800.000
766.000	6006.000	54460.000
767.000	6006.400	58900.000
768.000	6006.800	63620.000
769.000	6007.200	70180.000
770.000	6007.600	79650.000
771.000	6008.000	87970.000
772.000	6008.400	99810.000
773.000	6008.800	113830.000
774.000	6009.200	133090.000
775.000	6009.600	158650.000
776.000	6010.000	193660.000
777.000	6010.400	237690.000
778.000	6010.800	302380.000
779.000	6011.200	385590.000
780.000	6011.600	517090.000
781.000	6012.000	684390.000
782.000	6012.400	979500.000
783.000	6012.800	1459210.000
784.000	6013.200	2282960.000
785.000	6013.600	6368030.000
786.000	6014.000	8462460.000
787.000	6014.400	14420760.000
788.000	6014.800	2263690.000
789.000	6015.200	588840.000
790.000	6015.600	242180.000
791.000	6016.000	138090.000
792.000	6016.400	104250.000
793.000	6016.800	117810.000
794.000	6017.200	195570.000
795.000	6017.600	208140.000
796.000	6018.000	158180.000
797.000	6018.400	127960.000
798.000	6018.800	110040.000
799.000	6019.200	95160.000
800.000	6019.600	80180.000
801.000	6020.000	69890.000
802.000	6020.400	56560.000
803.000	6020.800	61880.000
804.000	6021.200	266940.000
805.000	6021.600	55310.000
806.000	6022.000	38690.000
807.000	6022.400	36810.000
808.000	6022.800	35140.000
809.000	6023.200	35320.000
810.000	6023.600	33220.000
811.000	6024.000	33010.000
812.000	6024.400	33530.000
813.000	6024.800	35750.000
814.000	6025.200	31380.000
815.000	6025.600	29960.000
816.000	6026.000	31710.000
817.000	6026.400	34060.000
818.000	6026.800	68340.000
819.000	6027.200	51590.000
820.000	6027.600	47960.000
821.000	6028.000	40650.000
822.000	6028.400	45870.000
823.000	6028.800	54760.000
824.000	6029.200	58960.000
825.000	6029.600	59270.000
826.000	6030.000	67190.000
827.000	6030.400	81330.000
828.000	6030.800	96530.000
829.000	6031.200	121520.000
830.000	6031.600	157270.000
831.000	6032.000	207990.000
832.000	6032.400	274160.000
833.000	6032.800	405100.000
834.000	6033.200	604480.000
835.000	6033.600	1181100.000
836.000	6034.000	11509200.000
837.000	6034.400	14171940.000
838.000	6034.800	3292380.000
839.000	6035.200	427580.000
840.000	6035.600	138090.000
841.000	6036.000	66520.000
842.000	6036.400	46130.000
843.000	6036.800	42010.000
844.000	6037.200	56330.000
845.000	6037.600	84250.000
846.000	6038.000	70370.000
847.000	6038.400	56980.000
848.000	6038.800	48630.000
849.000	6039.200	42660.000
850.000	6039.600	37160.000
851.000	6040.000	30750.000
852.000	6040.400	29110.000
853.000	6040.800	26190.000
854.000	6041.200	23760.000
855.000	6041.600	21140.000
856.000	6042.000	20190.000
857.000	6042.400	19350.000
858.000	6042.800	18780.000
859.000	6043.200	21980.000
860.000	6043.600	28930.000
861.000	6044.000	18880.000
862.000	6044.400	17520.000
863.000	6044.800	19560.000
864.000	6045.200	41080.000
865.000	6045.600	296790.000
866.000	6046.000	106950.000
867.000	6046.400	19880.000
868.000	6046.800	14900.000
869.000	6047.200	14110.000
870.000	6047.600	14280.000
871.000	6048.000	13470.000
872.000	6048.400	13740.000
873.000	6048.800	14040.000
874.000	6049.200	13980.000
875.000	6049.600	13810.000
876.000	6050.000	14330.000
877.000	6050.400	15460.000
878.000	6050.800	14200.000
879.000	6051.200	16130.000
880.000	6051.600	17960.000
881.000	6052.000	20940.000
882.000	6052.400	67750.000
883.000	6052.800	1118180.000
884.000	6053.200	123570.000
885.000	6053.600	23900.000
886.000	6054.000	23610.000
887.000	6054.400	12230.000
888.000	6054.800	11210.000
889.000	6055.200	11580.000
890.000	6055.600	11420.000
891.000	6056.000	11840.000
892.000	6056.400	11780.000
893.000	6056.800	11190.000
894.000	6057.200	11730.000
895.000	6057.600	11530.000
896.000	6058.000	11520.000
897.000	6058.400	11420.000
898.000	6058.800	11630.000
899.000	6059.200	11820.000
900.000	6059.600	102120.000
901.000	6060.000	84580.000
902.000	6060.400	11400.000
903.000	6060.800	10620.000
904.000	6061.200	10630.000
905.000	6061.600	9960.000
906.000	6062.000	10050.000
907.000	6062.400	9940.000
908.000	6062.800	10420.000
909.000	6063.200	11320.000
910.000	6063.600	38850.000
911.000	6064.000	52100.000
912.000	6064.400	10610.000
913.000	6064.800	9030.000
914.000	6065.200	9890.000
915.000	6065.600	9160.000
916.000	6066.000	9160.000
917.000	6066.400	9730.000
918.000	6066.800	9280.000
919.000	6067.200	9120.000
920.000	6067.600	9580.000
921.000	6068.000	9470.000
922.000	6068.400	9680.000
923.000	6068.800	9250.000
924.000	6069.200	9670.000
925.000	6069.600	9400.000
926.000	6070.000	10720.000
927.000	6070.400	10360.000
928.000	6070.800	10020.000
929.000	6071.200	9930.000
930.000	6071.600	9570.000
931.000	6072.000	10210.000
932.000	6072.400	9800.000
933.000	6072.800	10350.000
934.000	6073.200	11930.000
935.000	6073.600	27860.000
936.000	6074.000	17230.000
937.000	6074.400	11410.000
938.000	6074.800	12450.000
939.000	6075.200	13010.000
940.000	6075.600	13260.000
941.000	6076.000	17230.000
942.000	6076.400	231270.000
943.000	6076.800	63650.000
944.000	6077.200	15890.000
945.000	6077.600	14920.000
946.000	6078.000	15490.000
947.000	6078.400	16050.000
948.000	6078.800	17420.000
949.000	6079.200	18450.000
950.000	6079.600	20430.000
951.000	6080.000	21590.000
952.000	6080.400	22790.000
953.000	6080.800	24840.000
954.000	6081.200	27570.000
955.000	6081.600	30470.000
956.000	6082.000	34580.000
957.000	6082.400	40010.000
958.000	6082.800	45930.000
959.000	6083.200	53140.000
960.000	6083.600	66080.000
961.000	6084.000	99460.000
962.000	6084.400	694070.000
963.000	6084.800	182190.000
964.000	6085.200	164610.000
965.000	6085.600	220350.000
966.000	6086.000	301670.000
967.000	6086.400	456510.000
968.000	6086.800	702180.000
969.000	6087.200	1772160.000
970.000	6087.600	14846120.000
971.000	6088.000	14740970.000
972.000	6088.400	1184820.000
973.000	6088.800	264010.000
974.000	6089.200	93340.000
975.000	6089.600	49880.000
976.000	6090.000	36500.000
977.000	6090.400	37250.000
978.000	6090.800	60220.000
979.000	6091.200	75810.000
980.000	6091.600	55900.000
981.000	6092.000	46050.000
982.000	6092.400	38080.000
983.000	6092.800	34160.000
984.000	6093.200	28850.000
985.000	6093.600	25550.000
986.000	6094.000	21480.000
987.000	6094.400	18090.000
988.000	6094.800	17770.000
989.000	6095.200	15340.000
990.000	6095.600	15750.000
991.000	6096.000	81850.000
992.000	6096.400	33620.000
993.000	6096.800	13060.000
994.000	6097.200	12040.000
995.000	6097.600	12490.000
996.000	6098.000	11610.000
997.000	6098.400	11690.000
998.000	6098.800	10310.000
999.000	6099.200	10490.000
1000.000	6099.600	10530.000
1001.000	6100.000	10040.000
1002.000	6100.400	9860.000
1003.000	6100.800	9530.000
1004.000	6101.200	9770.000
1005.000	6101.600	9610.000
1006.000	6102.000	9200.000
1007.000	6102.400	9270.000
1008.000	6102.800	9430.000
1009.000	6103.200	9670.000
1010.000	6103.600	9530.000
1011.000	6104.000	9330.000
1012.000	6104.400	9080.000
1013.000	6104.800	9340.000
1014.000	6105.200	9050.000
1015.000	6105.600	8570.000
1016.000	6106.000	10130.000
1017.000	6106.400	9020.000
1018.000	6106.800	9310.000
1019.000	6107.200	8640.000
1020.000	6107.600	9150.000
1021.000	6108.000	8310.000
1022.000	6108.400	8520.000
1023.000	6108.800	9090.000
1024.000	6109.200	8890.000
1025.000	6109.600	8950.000
1026.000	6110.000	8660.000
1027.000	6110.400	8440.000
1028.000	6110.800	8650.000
1029.000	6111.200	8680.000
1030.000	6111.600	8880.000
1031.000	6112.000	8790.000
1032.000	6112.400	9560.000
1033.000	6112.800	9180.000
1034.000	6113.200	9460.000
1035.000	6113.600	9260.000
1036.000	6114.000	9050.000
1037.000	6114.400	9600.000
1038.000	6114.800	10080.000
1039.000	6115.200	9960.000
1040.000	6115.600	9830.000
1041.000	6116.000	11000.000
1042.000	6116.400	12780.000
1043.000	6116.800	131540.000
1044.000	6117.200	147680.000
1045.000	6117.600	11650.000
1046.000	6118.000	11150.000
1047.000	6118.400	9420.000
1048.000	6118.800	9940.000
1049.000	6119.200	10740.000
1050.000	6119.600	11750.000
1051.000	6120.000	14820.000
1052.000	6120.400	10840.000
1053.000	6120.800	11220.000
1054.000	6121.200	11930.000
1055.000	6121.600	11920.000
1056.000	6122.000	12160.000
1057.000	6122.400	15670.000
1058.000	6122.800	25830.000
1059.000	6123.200	17530.000
1060.000	6123.600	13970.000
1061.000	6124.000	15090.000
1062.000	6124.400	15220.000
1063.000	6124.800	15440.000
1064.000	6125.200	15970.000
1065.000	6125.600	17250.000
1066.000	6126.000	18190.000
1067.000	6126.400	19640.000
1068.000	6126.800	20910.000
1069.000	6127.200	22720.000
1070.000	6127.600	24130.000
1071.000	6128.000	25100.000
1072.000	6128.400	28490.000
1073.000	6128.800	51180.000
1074.000	6129.200	176720.000
1075.000	6129.600	40190.000
1076.000	6130.000	39470.000
1077.000	6130.400	42610.000
1078.000	6130.800	47900.000
1079.000	6131.200	55370.000
1080.000	6131.600	62570.000
1081.000	6132.000	73980.000
1082.000	6132.400	87440.000
1083.000	6132.800	106000.000
1084.000	6133.200	130140.000
1085.000	6133.600	166490.000
1086.000	6134.000	215900.000
1087.000	6134.400	289810.000
1088.000	6134.800	385270.000
1089.000	6135.200	556150.000
1090.000	6135.600	834650.000
1091.000	6136.000	1365950.000
1092.000	6136.400	5190420.000
1093.000	6136.800	10472720.000
1094.000	6137.200	11991610.000
1095.000	6137.600	1013390.000
1096.000	6138.000	288590.000
1097.000	6138.400	120830.000
1098.000	6138.800	70890.000
1099.000	6139.200	54750.000
1100.000	6139.600	62540.000
1101.000	6140.000	107480.000
1102.000	6140.400	111370.000
1103.000	6140.800	85010.000
1104.000	6141.200	69030.000
1105.000	6141.600	58010.000
1106.000	6142.000	51460.000
1107.000	6142.400	42340.000
1108.000	6142.800	37770.000
1109.000	6143.200	139960.000
1110.000	6143.600	49960.000
1111.000	6144.000	24030.000
1112.000	6144.400	21060.000
1113.000	6144.800	21160.000
1114.000	6145.200	19290.000
1115.000	6145.600	19270.000
1116.000	6146.000	33670.000
1117.000	6146.400	54340.000
1118.000	6146.800	17360.000
1119.000	6147.200	17290.000
1120.000	6147.600	14820.000
1121.000	6148.000	13950.000
1122.000	6148.400	13730.000
1123.000	6148.800	13030.000
1124.000	6149.200	13110.000
1125.000	6149.600	13480.000
1126.000	6150.000	13100.000
1127.000	6150.400	13230.000
1128.000	6150.800	12050.000
1129.000	6151.200	13290.000
1130.000	6151.600	12920.000
1131.000	6152.000	12330.000
1132.000	6152.400	12220.000
1133.000	6152.800	12180.000
1134.000	6153.200	12700.000
1135.000	6153.600	11760.000
1136.000	6154.000	12300.000
1137.000	6154.400	12250.000
1138.000	6154.800	12710.000
1139.000	6155.200	12280.000
1140.000	6155.600	12440.000
1141.000	6156.000	12060.000
1142.000	6156.400	12220.000
1143.000	6156.800	12350.000
1144.000	6157.200	11580.000
1145.000	6157.600	11810.000
1146.000	6158.000	12010.000
1147.000	6158.400	11680.000
1148.000	6158.800	12280.000
1149.000	6159.200	12580.000
1150.000	6159.600	12530.000
1151.000	6160.000	13610.000
1152.000	6160.400	13870.000
1153.000	6160.800	12810.000
1154.000	6161.200	13390.000
1155.000	6161.600	13920.000
1156.000	6162.000	14220.000
1157.000	6162.400	14490.000
1158.000	6162.800	15250.000
1159.000	6163.200	17880.000
1160.000	6163.600	129740.000
1161.000	6164.000	48170.000
1162.000	6164.400	16570.000
1163.000	6164.800	15440.000
1164.000	6165.200	17750.000
1165.000	6165.600	18510.000
1166.000	6166.000	18450.000
1167.000	6166.400	19560.000
1168.000	6166.800	22650.000
1169.000	6167.200	25230.000
1170.000	6167.600	24500.000
1171.000	6168.000	25560.000
1172.000	6168.400	27080.000
1173.000	6168.800	30500.000
1174.000	6169.200	34120.000
1175.000	6169.600	40730.000
1176.000	6170.000	46020.000
1177.000	6170.400	54080.000
1178.000	6170.800	64520.000
1179.000	6171.200	76720.000
1180.000	6171.600	96940.000
1181.000	6172.000	128270.000
1182.000	6172.400	166810.000
1183.000	6172.800	227390.000
1184.000	6173.200	333340.000
1185.000	6173.600	492440.000
1186.000	6174.000	1005870.000
1187.000	6174.400	11732820.000
1188.000	6174.800	14735480.000
1189.000	6175.200	1875780.000
1190.000	6175.600	311430.000
1191.000	6176.000	107170.000
1192.000	6176.400	55460.000
1193.000	6176.800	39920.000
1194.000	6177.200	33030.000
1195.000	6177.600	43840.000
1196.000	6178.000	67790.000
1197.000	6178.400	56740.000
1198.000	6178.800	46680.000
1199.000	6179.200	38670.000
1200.000	6179.600	34440.000
1201.000	6180.000	30580.000
1202.000	6180.400	26160.000
1203.000	6180.800	24030.000
1204.000	6181.200	20670.000
1205.000	6181.600	19250.000
1206.000	6182.000	18010.000
1207.000	6182.400	18840.000
1208.000	6182.800	19630.000
1209.000	6183.200	39350.000
1210.000	6183.600	266890.000
1211.000	6184.000	33170.000
1212.000	6184.400	17530.000
1213.000	6184.800	16840.000
1214.000	6185.200	16890.000
1215.000	6185.600	16620.000
1216.000	6186.000	16330.000
1217.000	6186.400	16440.000
1218.000	6186.800	15850.000
1219.000	6187.200	16060.000
1220.000	6187.600	17280.000
1221.000	6188.000	16390.000
1222.000	6188.400	17350.000
1223.000	6188.800	17540.000
1224.000	6189.200	18260.000
1225.000	6189.600	19130.000
1226.000	6190.000	20200.000
1227.000	6190.400	20650.000
1228.000	6190.800	21140.000
1229.000	6191.200	21580.000
1230.000	6191.600	22040.000
1231.000	6192.000	22790.000
1232.000	6192.400	25200.000
1233.000	6192.800	25080.000
1234.000	6193.200	26380.000
1235.000	6193.600	29110.000
1236.000	6194.000	29490.000
1237.000	6194.400	33080.000
1238.000	6194.800	34530.000
1239.000	6195.200	38410.000
1240.000	6195.600	41140.000
1241.000	6196.000	45040.000
1242.000	6196.400	49880.000
1243.000	6196.800	55790.000
1244.000	6197.200	59730.000
1245.000	6197.600	78630.000
1246.000	6198.000	672410.000
1247.000	6198.400	263180.000
1248.000	6198.800	90900.000
1249.000	6199.200	105510.000
1250.000	6199.600	121570.000
1251.000	6200.000	143910.000
1252.000	6200.400	185340.000
1253.000	6200.800	495430.000
1254.000	6201.200	301830.000
1255.000	6201.600	365410.000
1256.000	6202.000	482050.000
1257.000	6202.400	665370.000
1258.000	6202.800	974030.000
1259.000	6203.200	1438940.000
1260.000	6203.600	2658040.000
1261.000	6204.000	14160820.000
1262.000	6204.400	8057710.000
1263.000	6204.800	8517190.000
1264.000	6205.200	1233840.000
1265.000	6205.600	402520.000
1266.000	6206.000	178770.000
1267.000	6206.400	109680.000
1268.000	6206.800	88070.000
1269.000	6207.200	113010.000
1270.000	6207.600	190130.000
1271.000	6208.000	168120.000
1272.000	6208.400	133360.000
1273.000	6208.800	108050.000
1274.000	6209.200	92860.000
1275.000	6209.600	78620.000
1276.000	6210.000	66290.000
1277.000	6210.400	58190.000
1278.000	6210.800	49560.000
1279.000	6211.200	40830.000
1280.000	6211.600	37540.000
1281.000	6212.000	33960.000
1282.000	6212.400	31780.000
1283.000	6212.800	29910.000
1284.000	6213.200	28120.000
1285.000	6213.600	27620.000
1286.000	6214.000	26780.000
1287.000	6214.400	26810.000
1288.000	6214.800	24860.000
1289.000	6215.200	21690.000
1290.000	6215.600	21820.000
1291.000	6216.000	20810.000
1292.000	6216.400	20750.000
1293.000	6216.800	19700.000
1294.000	6217.200	20170.000
1295.000	6217.600	19000.000
1296.000	6218.000	19630.000
1297.000	6218.400	18990.000
1298.000	6218.800	19310.000
1299.000	6219.200	19170.000
1300.000	6219.600	18210.000
1301.000	6220.000	19420.000
1302.000	6220.400	18380.000
1303.000	6220.800	19440.000
1304.000	6221.200	26610.000
1305.000	6221.600	85910.000
1306.000	6222.000	20350.000
1307.000	6222.400	17700.000
1308.000	6222.800	18320.000
1309.000	6223.200	17500.000
1310.000	6223.600	18550.000
1311.000	6224.000	18500.000
1312.000	6224.400	17650.000
1313.000	6224.800	17860.000
1314.000	6225.200	17170.000
1315.000	6225.600	17320.000
1316.000	6226.000	17540.000
1317.000	6226.400	18050.000
1318.000	6226.800	17120.000
1319.000	6227.200	16290.000
1320.000	6227.600	17150.000
1321.000	6228.000	17080.000
1322.000	6228.400	17150.000
1323.000	6228.800	16850.000
1324.000	6229.200	17700.000
1325.000	6229.600	17430.000
1326.000	6230.000	17780.000
1327.000	6230.400	18460.000
1328.000	6230.800	17910.000
1329.000	6231.200	18190.000
1330.000	6231.600	18910.000
1331.000	6232.000	19050.000
1332.000	6232.400	19280.000
1333.000	6232.800	18620.000
1334.000	6233.200	19590.000
1335.000	6233.600	19540.000
1336.000	6234.000	19310.000
1337.000	6234.400	50210.000
1338.000	6234.800	33290.000
1339.000	6235.200	19940.000
1340.000	6235.600	19850.000
1341.000	6236.000	19760.000
1342.000	6236.400	20700.000
1343.000	6236.800	21090.000
1344.000	6237.200	21570.000
1345.000	6237.600	23340.000
1346.000	6238.000	23810.000
1347.000	6238.400	23070.000
1348.000	6238.800	24120.000
1349.000	6239.200	25620.000
1350.000	6239.600	25720.000
1351.000	6240.000	26790.000
1352.000	6240.400	27720.000
1353.000	6240.800	29860.000
1354.000	6241.200	29160.000
1355.000	6241.600	30810.000
1356.000	6242.000	32860.000
1357.000	6242.400	34430.000
1358.000	6242.800	36130.000
1359.000	6243.200	39850.000
1360.000	6243.600	40550.000
1361.000	6244.000	43010.000
1362.000	6244.400	48080.000
1363.000	6244.800	50890.000
1364.000	6245.200	54950.000
1365.000	6245.600	59890.000
1366.000	6246.000	66980.000
1367.000	6246.400	73430.000
1368.000	6246.800	81060.000
1369.000	6247.200	94320.000
1370.000	6247.600	106670.000
1371.000	6248.000	125530.000
1372.000	6248.400	148840.000
1373.000	6248.800	180710.000
1374.000	6249.200	227990.000
1375.000	6249.600	296710.000
1376.000	6250.000	389200.000
1377.000	6250.400	521430.000
1378.000	6250.800	743160.000
1379.000	6251.200	1101220.000
1380.000	6251.600	1772160.000
1381.000	6252.000	5673410.000
1382.000	6252.400	9153620.000
1383.000	6252.800	14958600.000
1384.000	6253.200	1899250.000
1385.000	6253.600	553380.000
1386.000	6254.000	233230.000
1387.000	6254.400	134290.000
1388.000	6254.800	97640.000
1389.000	6255.200	100470.000
1390.000	6255.600	151640.000
1391.000	6256.000	190430.000
1392.000	6256.400	144440.000
1393.000	6256.800	124580.000
1394.000	6257.200	112430.000
1395.000	6257.600	97970.000
1396.000	6258.000	89690.000
1397.000	6258.400	81740.000
1398.000	6258.800	73400.000
1399.000	6259.200	70270.000
1400.000	6259.600	67070.000
1401.000	6260.000	66070.000
1402.000	6260.400	67650.000
1403.000	6260.800	67380.000
1404.000	6261.200	68550.000
1405.000	6261.600	69470.000
1406.000	6262.000	77250.000
1407.000	6262.400	80680.000
1408.000	6262.800	87780.000
1409.000	6263.200	89410.000
1410.000	6263.600	95320.000
1411.000	6264.000	105230.000
1412.000	6264.400	111130.000
1413.000	6264.800	121400.000
1414.000	6265.200	136410.000
1415.000	6265.600	153220.000
1416.000	6266.000	169640.000
1417.000	6266.400	196310.000
1418.000	6266.800	227720.000
1419.000	6267.200	266040.000
1420.000	6267.600	324450.000
1421.000	6268.000	395280.000
1422.000	6268.400	495990.000
1423.000	6268.800	634910.000
1424.000	6269.200	847150.000
1425.000	6269.600	1093430.000
1426.000	6270.000	1527820.000
1427.000	6270.400	2389590.000
1428.000	6270.800	3614370.000
1429.000	6271.200	8165940.000
1430.000	6271.600	6398340.000
1431.000	6272.000	9186400.000
1432.000	6272.400	5286650.000
1433.000	6272.800	1580440.000
1434.000	6273.200	650280.000
1435.000	6273.600	352180.000
1436.000	6274.000	244770.000
1437.000	6274.400	218660.000
1438.000	6274.800	307490.000
1439.000	6275.200	421600.000
1440.000	6275.600	317330.000
1441.000	6276.000	257740.000
1442.000	6276.400	219640.000
1443.000	6276.800	189210.000
1444.000	6277.200	161650.000
1445.000	6277.600	138790.000
1446.000	6278.000	116400.000
1447.000	6278.400	98550.000
1448.000	6278.800	100700.000
1449.000	6279.200	335380.000
1450.000	6279.600	84680.000
1451.000	6280.000	65790.000
1452.000	6280.400	59530.000
1453.000	6280.800	56860.000
1454.000	6281.200	52940.000
1455.000	6281.600	49470.000
1456.000	6282.000	50130.000
1457.000	6282.400	43070.000
1458.000	6282.800	38700.000
1459.000	6283.200	37480.000
1460.000	6283.600	35750.000
1461.000	6284.000	35060.000
1462.000	6284.400	33300.000
1463.000	6284.800	33000.000
1464.000	6285.200	31130.000
1465.000	6285.600	30170.000
1466.000	6286.000	29140.000
1467.000	6286.400	29070.000
1468.000	6286.800	28960.000
1469.000	6287.200	28390.000
1470.000	6287.600	28010.000
1471.000	6288.000	27460.000
1472.000	6288.400	26530.000
1473.000	6288.800	27740.000
1474.000	6289.200	26110.000
1475.000	6289.600	26740.000
1476.000	6290.000	24780.000
1477.000	6290.400	26600.000
1478.000	6290.800	94820.000
1479.000	6291.200	84090.000
1480.000	6291.600	25560.000
1481.000	6292.000	23930.000
1482.000	6292.400	22290.000
1483.000	6292.800	22990.000
1484.000	6293.200	21860.000
1485.000	6293.600	22060.000
1486.000	6294.000	22060.000
1487.000	6294.400	20960.000
1488.000	6294.800	21090.000
1489.000	6295.200	20470.000
1490.000	6295.600	20290.000
1491.000	6296.000	20090.000
1492.000	6296.400	20240.000
1493.000	6296.800	20130.000
1494.000	6297.200	20890.000
1495.000	6297.600	20070.000
1496.000	6298.000	19870.000
1497.000	6298.400	19820.000
1498.000	6298.800	19640.000
1499.000	6299.200	18570.000
1500.000	6299.600	17860.000
1501.000	6300.000	18900.000
1502.000	6300.400	17500.000
1503.000	6300.800	17850.000
1504.000	6301.200	18280.000
1505.000	6301.600	17060.000
1506.000	6302.000	17140.000
1507.000	6302.400	16390.000
1508.000	6302.800	16520.000
1509.000	6303.200	15230.000
1510.000	6303.600	15680.000
1511.000	6304.000	14790.000
1512.000	6304.400	15300.000
1513.000	6304.800	15370.000
1514.000	6305.200	14980.000
1515.000	6305.600	14520.000
1516.000	6306.000	14060.000
1517.000	6306.400	14390.000
1518.000	6306.800	14420.000
1519.000	6307.200	13960.000
1520.000	6307.600	13890.000
1521.000	6308.000	13690.000
1522.000	6308.400	13510.000
1523.000	6308.800	13460.000
1524.000	6309.200	13460.000
1525.000	6309.600	13110.000
1526.000	6310.000	13560.000
1527.000	6310.400	13110.000
1528.000	6310.800	12460.000
1529.000	6311.200	12620.000
1530.000	6311.600	12890.000
1531.000	6312.000	12780.000
1532.000	6312.400	12870.000
1533.000	6312.800	13080.000
1534.000	6313.200	14960.000
1535.000	6313.600	123120.000
1536.000	6314.000	184810.000
1537.000	6314.400	14270.000
1538.000	6314.800	11840.000
1539.000	6315.200	11280.000
1540.000	6315.600	10720.000
1541.000	6316.000	10760.000
1542.000	6316.400	11660.000
1543.000	6316.800	10400.000
1544.000	6317.200	11060.000
1545.000	6317.600	10860.000
1546.000	6318.000	10910.000
1547.000	6318.400	10610.000
1548.000	6318.800	11030.000
1549.000	6319.200	10770.000
1550.000	6319.600	10210.000
1551.000	6320.000	10100.000
1552.000	6320.400	10260.000
1553.000	6320.800	10100.000
1554.000	6321.200	10010.000
1555.000	6321.600	9620.000
1556.000	6322.000	9810.000
1557.000	6322.400	9990.000
1558.000	6322.800	11620.000
1559.000	6323.200	9560.000
1560.000	6323.600	11300.000
1561.000	6324.000	9940.000
1562.000	6324.400	9280.000
1563.000	6324.800	9640.000
1564.000	6325.200	11650.000
1565.000	6325.600	9620.000
1566.000	6326.000	9090.000
1567.000	6326.400	8470.000
1568.000	6326.800	9370.000
1569.000	6327.200	8820.000
1570.000	6327.600	8830.000
1571.000	6328.000	8910.000
1572.000	6328.400	8820.000
1573.000	6328.800	9210.000
1574.000	6329.200	8870.000
1575.000	6329.600	8920.000
1576.000	6330.000	8350.000
1577.000	6330.400	8450.000
1578.000	6330.800	8620.000
1579.000	6331.200	8230.000
1580.000	6331.600	8800.000
1581.000	6332.000	8980.000
1582.000	6332.400	8410.000
1583.000	6332.800	7880.000
1584.000	6333.200	8320.000
1585.000	6333.600	8350.000
1586.000	6334.000	8430.000
1587.000	6334.400	8540.000
1588.000	6334.800	8150.000
1589.000	6335.200	8190.000
1590.000	6335.600	8890.000
1591.000	6336.000	8430.000
1592.000	6336.400	8250.000
1593.000	6336.800	7840.000
1594.000	6337.200	8360.000
1595.000	6337.600	8070.000
1596.000	6338.000	7760.000
1597.000	6338.400	7990.000
1598.000	6338.800	8870.000
1599.000	6339.200	8260.000
1600.000	6339.600	8420.000
1601.000	6340.000	8320.000
1602.000	6340.400	7880.000
1603.000	6340.800	8290.000
1604.000	6341.200	8420.000
1605.000	6341.600	8420.000
1606.000	6342.000	8480.000
1607.000	6342.400	8150.000
1608.000	6342.800	8320.000
1609.000	6343.200	8500.000
1610.000	6343.600	8970.000
1611.000	6344.000	7980.000
1612.000	6344.400	8910.000
1613.000	6344.800	8750.000
1614.000	6345.200	8730.000
1615.000	6345.600	8790.000
1616.000	6346.000	8590.000
1617.000	6346.400	8890.000
1618.000	6346.800	8770.000
1619.000	6347.200	8440.000
1620.000	6347.600	9260.000
1621.000	6348.000	9390.000
1622.000	6348.400	9060.000
1623.000	6348.800	8660.000
1624.000	6349.200	8570.000
1625.000	6349.600	8510.000
1626.000	6350.000	9120.000
1627.000	6350.400	9290.000
1628.000	6350.800	9300.000
1629.000	6351.200	9700.000
1630.000	6351.600	9410.000
1631.000	6352.000	9200.000
1632.000	6352.400	9860.000
1633.000	6352.800	9530.000
1634.000	6353.200	9200.000
1635.000	6353.600	9420.000
1636.000	6354.000	10250.000
1637.000	6354.400	9690.000
1638.000	6354.800	10030.000
1639.000	6355.200	9620.000
1640.000	6355.600	10810.000
1641.000	6356.000	10760.000
1642.000	6356.400	10760.000
1643.000	6356.800	11430.000
1644.000	6357.200	11470.000
1645.000	6357.600	11660.000
1646.000	6358.000	12420.000
1647.000	6358.400	11750.000
1648.000	6358.800	13220.000
1649.000	6359.200	13120.000
1650.000	6359.600	13140.000
1651.000	6360.000	14360.000
1652.000	6360.400	14430.000
1653.000	6360.800	15390.000
1654.000	6361.200	16420.000
1655.000	6361.600	17130.000
1656.000	6362.000	18220.000
1657.000	6362.400	18240.000
1658.000	6362.800	20020.000
1659.000	6363.200	19700.000
1660.000	6363.600	21540.000
1661.000	6364.000	23290.000
1662.000	6364.400	23690.000
1663.000	6364.800	25470.000
1664.000	6365.200	27930.000
1665.000	6365.600	30170.000
1666.000	6366.000	32820.000
1667.000	6366.400	34030.000
1668.000	6366.800	36430.000
1669.000	6367.200	40320.000
1670.000	6367.600	47180.000
1671.000	6368.000	50020.000
1672.000	6368.400	55620.000
1673.000	6368.800	62160.000
1674.000	6369.200	68530.000
1675.000	6369.600	79440.000
1676.000	6370.000	91370.000
1677.000	6370.400	105150.000
1678.000	6370.800	122030.000
1679.000	6371.200	154940.000
1680.000	6371.600	188000.000
1681.000	6372.000	240840.000
1682.000	6372.400	312520.000
1683.000	6372.800	412220.000
1684.000	6373.200	556680.000
1685.000	6373.600	795690.000
1686.000	6374.000	1175910.000
1687.000	6374.400	1893170.000
1688.000	6374.800	5555120.000
1689.000	6375.200	8931040.000
1690.000	6375.600	14922510.000
1691.000	6376.000	2461900.000
1692.000	6376.400	708390.000
1693.000	6376.800	278910.000
1694.000	6377.200	151160.000
1695.000	6377.600	100950.000
1696.000	6378.000	95540.000
1697.000	6378.400	144750.000
1698.000	6378.800	196070.000
1699.000	6379.200	142000.000
1700.000	6379.600	116870.000
1701.000	6380.000	100320.000
1702.000	6380.400	84880.000
1703.000	6380.800	72130.000
1704.000	6381.200	60530.000
1705.000	6381.600	52340.000
1706.000	6382.000	42960.000
1707.000	6382.400	37910.000
1708.000	6382.800	33560.000
1709.000	6383.200	30960.000
1710.000	6383.600	29180.000
1711.000	6384.000	27430.000
1712.000	6384.400	25550.000
1713.000	6384.800	25880.000
1714.000	6385.200	24900.000
1715.000	6385.600	23370.000
1716.000	6386.000	20520.000
1717.000	6386.400	20500.000
1718.000	6386.800	19110.000
1719.000	6387.200	19520.000
1720.000	6387.600	18490.000
1721.000	6388.000	18380.000
1722.000	6388.400	18740.000
1723.000	6388.800	19000.000
1724.000	6389.200	18580.000
1725.000	6389.600	18920.000
1726.000	6390.000	18930.000
1727.000	6390.400	18940.000
1728.000	6390.800	19180.000
1729.000	6391.200	19570.000
1730.000	6391.600	19600.000
1731.000	6392.000	22090.000
1732.000	6392.400	22000.000
1733.000	6392.800	23470.000
1734.000	6393.200	23730.000
1735.000	6393.600	25740.000
1736.000	6394.000	26570.000
1737.000	6394.400	26460.000
1738.000	6394.800	29440.000
1739.000	6395.200	33170.000
1740.000	6395.600	35710.000
1741.000	6396.000	38910.000
1742.000	6396.400	44060.000
1743.000	6396.800	50370.000
1744.000	6397.200	57890.000
1745.000	6397.600	69220.000
1746.000	6398.000	84210.000
1747.000	6398.400	105670.000
1748.000	6398.800	136680.000
1749.000	6399.200	180850.000
1750.000	6399.600	240310.000
1751.000	6400.000	350530.000
1752.000	6400.400	522510.000
1753.000	6400.800	934260.000
1754.000	6401.200	5011740.000
1755.000	6401.600	13912580.000
1756.000	6402.000	8404590.000
1757.000	6402.400	647870.000
1758.000	6402.800	205790.000
1759.000	6403.200	91380.000
1760.000	6403.600	53390.000
1761.000	6404.000	39870.000
1762.000	6404.400	43850.000
1763.000	6404.800	71090.000
1764.000	6405.200	81670.000
1765.000	6405.600	60370.000
1766.000	6406.000	49030.000
1767.000	6406.400	44330.000
1768.000	6406.800	36760.000
1769.000	6407.200	30780.000
1770.000	6407.600	26970.000
1771.000	6408.000	23600.000
1772.000	6408.400	20530.000
1773.000	6408.800	18910.000
1774.000	6409.200	17980.000
1775.000	6409.600	16870.000
1776.000	6410.000	16120.000
1777.000	6410.400	15660.000
1778.000	6410.800	14790.000
1779.000	6411.200	13900.000
1780.000	6411.600	14700.000
1781.000	6412.000	12050.000
1782.000	6412.400	12230.000
1783.000	6412.800	12020.000
1784.000	6413.200	11090.000
1785.000	6413.600	11560.000
1786.000	6414.000	12340.000
1787.000	6414.400	11140.000
1788.000	6414.800	10150.000
1789.000	6415.200	10660.000
1790.000	6415.600	10280.000
1791.000	6416.000	10630.000
1792.000	6416.400	10780.000
1793.000	6416.800	9920.000
1794.000	6417.200	9800.000
1795.000	6417.600	9530.000
1796.000	6418.000	9410.000
1797.000	6418.400	9820.000
1798.000	6418.800	8950.000
1799.000	6419.200	9340.000
1800.000	6419.600	9130.000
1801.000	6420.000	9330.000
1802.000	6420.400	8850.000
1803.000	6420.800	8530.000
1804.000	6421.200	8170.000
1805.000	6421.600	8650.000
1806.000	6422.000	7940.000
1807.000	6422.400	7660.000
1808.000	6422.800	8530.000
1809.000	6423.200	7490.000
1810.000	6423.600	8320.000
1811.000	6424.000	7810.000
1812.000	6424.400	7940.000
1813.000	6424.800	7720.000
1814.000	6425.200	8050.000
1815.000	6425.600	7830.000
1816.000	6426.000	7870.000
1817.000	6426.400	7470.000
1818.000	6426.800	7690.000
1819.000	6427.200	7210.000
1820.000	6427.600	8380.000
1821.000	6428.000	7420.000
1822.000	6428.400	7620.000
1823.000	6428.800	8300.000
1824.000	6429.200	7630.000
1825.000	6429.600	7350.000
1826.000	6430.000	7640.000
1827.000	6430.400	7340.000
1828.000	6430.800	10530.000
1829.000	6431.200	97100.000
1830.000	6431.600	42570.000
1831.000	6432.000	7700.000
1832.000	6432.400	6900.000
1833.000	6432.800	7000.000
1834.000	6433.200	6850.000
1835.000	6433.600	6670.000
1836.000	6434.000	6430.000
1837.000	6434.400	6430.000
1838.000	6434.800	7030.000
1839.000	6435.200	6510.000
1840.000	6435.600	7050.000
1841.000	6436.000	6910.000
1842.000	6436.400	5710.000
1843.000	6436.800	6310.000
1844.000	6437.200	6780.000
1845.000	6437.600	6270.000
1846.000	6438.000	6140.000
1847.000	6438.400	6520.000
1848.000	6438.800	6490.000
1849.000	6439.200	6130.000
1850.000	6439.600	5580.000
1851.000	6440.000	5760.000
1852.000	6440.400	6230.000
1853.000	6440.800	5930.000
1854.000	6441.200	6470.000
1855.000	6441.600	6070.000
1856.000	6442.000	6380.000
1857.000	6442.400	6180.000
1858.000	6442.800	6630.000
1859.000	6443.200	6100.000
1860.000	6443.600	6290.000
1861.000	6444.000	6410.000
1862.000	6444.400	6600.000
1863.000	6444.800	6460.000
1864.000	6445.200	6050.000
1865.000	6445.600	5980.000
1866.000	6446.000	6080.000
1867.000	6446.400	6350.000
1868.000	6446.800	6500.000
1869.000	6447.200	6230.000
1870.000	6447.600	6140.000
1871.000	6448.000	6430.000
1872.000	6448.400	6640.000
1873.000	6448.800	6720.000
1874.000	6449.200	6590.000
1875.000	6449.600	6360.000
1876.000	6450.000	7230.000
1877.000	6450.400	6590.000
1878.000	6450.800	6800.000
1879.000	6451.200	7800.000
1880.000	6451.600	7290.000
1881.000	6452.000	7540.000
1882.000	6452.400	7680.000
1883.000	6452.800	8430.000
1884.000	6453.200	8360.000
1885.000	6453.600	9260.000
1886.000	6454.000	9320.000
1887.000	6454.400	9500.000
1888.000	6454.800	9900.000
1889.000	6455.200	9850.000
1890.000	6455.600	10700.000
1891.000	6456.000	11790.000
1892.000	6456.400	11630.000
1893.000	6456.800	12330.000
1894.000	6457.200	12600.000
1895.000	6457.600	14490.000
1896.000	6458.000	14790.000
1897.000	6458.400	15660.000
1898.000	6458.800	18200.000
1899.000	6459.200	19790.000
1900.000	6459.600	21410.000
1901.000	6460.000	22530.000
1902.000	6460.400	25270.000
1903.000	6460.800	27460.000
1904.000	6461.200	30290.000
1905.000	6461.600	35270.000
1906.000	6462.000	40610.000
1907.000	6462.400	46470.000
1908.000	6462.800	55810.000
1909.000	6463.200	65810.000
1910.000	6463.600	81680.000
1911.000	6464.000	104470.000
1912.000	6464.400	133670.000
1913.000	6464.800	178260.000
1914.000	6465.200	240270.000
1915.000	6465.600	336280.000
1916.000	6466.000	508330.000
1917.000	6466.400	802610.000
1918.000	6466.800	1834560.000
1919.000	6467.200	14457390.000
1920.000	6467.600	14733230.000
1921.000	6468.000	2138380.000
1922.000	6468.400	527030.000
1923.000	6468.800	216050.000
1924.000	6469.200	115300.000
1925.000	6469.600	75380.000
1926.000	6470.000	61990.000
1927.000	6470.400	69420.000
1928.000	6470.800	101560.000
1929.000	6471.200	121550.000
1930.000	6471.600	94450.000
1931.000	6472.000	52780.000
1932.000	6472.400	44040.000
1933.000	6472.800	37010.000
1934.000	6473.200	29750.000
1935.000	6473.600	25470.000
1936.000	6474.000	22270.000
1937.000	6474.400	19100.000
1938.000	6474.800	17130.000
1939.000	6475.200	16150.000
1940.000	6475.600	15050.000
1941.000	6476.000	13920.000
1942.000	6476.400	12570.000
1943.000	6476.800	12500.000
1944.000	6477.200	12850.000
1945.000	6477.600	11180.000
1946.000	6478.000	10630.000
1947.000	6478.400	9460.000
1948.000	6478.800	9520.000
1949.000	6479.200	8770.000
1950.000	6479.600	9270.000
1951.000	6480.000	8150.000
1952.000	6480.400	7850.000
1953.000	6480.800	8510.000
1954.000	6481.200	7910.000
1955.000	6481.600	7600.000
1956.000	6482.000	7590.000
1957.000	6482.400	7670.000
1958.000	6482.800	7030.000
1959.000	6483.200	7210.000
1960.000	6483.600	7050.000
1961.000	6484.000	6990.000
1962.000	6484.400	6230.000
1963.000	6484.800	6630.000
1964.000	6485.200	6860.000
1965.000	6485.600	6210.000
1966.000	6486.000	6720.000
1967.000	6486.400	6620.000
1968.000	6486.800	5910.000
1969.000	6487.200	6770.000
1970.000	6487.600	5960.000
1971.000	6488.000	6610.000
1972.000	6488.400	5820.000
1973.000	6488.800	6100.000
1974.000	6489.200	6370.000
1975.000	6489.600	6480.000
1976.000	6490.000	6160.000
1977.000	6490.400	5910.000
1978.000	6490.800	5660.000
1979.000	6491.200	5960.000
1980.000	6491.600	5680.000
1981.000	6492.000	5730.000
1982.000	6492.400	6060.000
1983.000	6492.800	6080.000
1984.000	6493.200	5980.000
1985.000	6493.600	6160.000
1986.000	6494.000	5650.000
1987.000	6494.400	6160.000
1988.000	6494.800	6050.000
1989.000	6495.200	6420.000
1990.000	6495.600	5600.000
1991.000	6496.000	5510.000
1992.000	6496.400	5780.000
1993.000	6496.800	5360.000
1994.000	6497.200	5170.000
1995.000	6497.600	5710.000
1996.000	6498.000	5480.000
1997.000	6498.400	5340.000
1998.000	6498.800	5550.000
1999.000	6499.200	5390.000
2000.000	6499.600	5150.000
2001.000	6500.000	4760.000
2002.000	6500.400	5250.000
2003.000	6500.800	5030.000
2004.000	6501.200	5180.000
2005.000	6501.600	5740.000
2006.000	6502.000	5110.000
2007.000	6502.400	5490.000
2008.000	6502.800	4980.000
2009.000	6503.200	5030.000
2010.000	6503.600	5090.000
2011.000	6504.000	5120.000
2012.000	6504.400	5310.000
2013.000	6504.800	4930.000
2014.000	6505.200	5470.000
2015.000	6505.600	5220.000
2016.000	6506.000	5390.000
2017.000	6506.400	5400.000
2018.000	6506.800	4750.000
2019.000	6507.200	4920.000
2020.000	6507.600	5140.000
2021.000	6508.000	14070.000
2022.000	6508.400	8230.000
2023.000	6508.800	5360.000
2024.000	6509.200	4660.000
2025.000	6509.600	4650.000
2026.000	6510.000	5060.000
2027.000	6510.400	4670.000
2028.000	6510.800	5380.000
2029.000	6511.200	5320.000
2030.000	6511.600	4910.000
2031.000	6512.000	5180.000
2032.000	6512.400	4840.000
2033.000	6512.800	5000.000
2034.000	6513.200	4770.000
2035.000	6513.600	5060.000
2036.000	6514.000	5290.000
2037.000	6514.400	5210.000
2038.000	6514.800	4930.000
2039.000	6515.200	5270.000
2040.000	6515.600	5480.000
2041.000	6516.000	5470.000
2042.000	6516.400	5100.000
2043.000	6516.800	5850.000
2044.000	6517.200	5880.000
2045.000	6517.600	6230.000
2046.000	6518.000	6830.000
2047.000	6518.400	7130.000
2048.000	6518.800	8370.000
2049.000	6519.200	10150.000
2050.000	6519.600	17130.000
2051.000	6520.000	293830.000
2052.000	6520.400	793400.000
2053.000	6520.800	24600.000
2054.000	6521.200	8900.000
2055.000	6521.600	6770.000
2056.000	6522.000	6240.000
2057.000	6522.400	6090.000
2058.000	6522.800	5560.000
2059.000	6523.200	6270.000
2060.000	6523.600	6070.000
2061.000	6524.000	6030.000
2062.000	6524.400	5820.000
2063.000	6524.800	5790.000
2064.000	6525.200	6620.000
2065.000	6525.600	6340.000
2066.000	6526.000	6240.000
2067.000	6526.400	6700.000
2068.000	6526.800	6940.000
2069.000	6527.200	6510.000
2070.000	6527.600	6920.000
2071.000	6528.000	7550.000
2072.000	6528.400	7660.000
2073.000	6528.800	8100.000
2074.000	6529.200	7690.000
2075.000	6529.600	7890.000
2076.000	6530.000	7800.000
2077.000	6530.400	8600.000
2078.000	6530.800	8950.000
2079.000	6531.200	9140.000
2080.000	6531.600	9700.000
2081.000	6532.000	10540.000
2082.000	6532.400	11520.000
2083.000	6532.800	11520.000
2084.000	6533.200	12260.000
2085.000	6533.600	12840.000
2086.000	6534.000	14380.000
2087.000	6534.400	14790.000
2088.000	6534.800	38870.000
2089.000	6535.200	44220.000
2090.000	6535.600	17650.000
2091.000	6536.000	18540.000
2092.000	6536.400	20550.000
2093.000	6536.800	22540.000
2094.000	6537.200	23690.000
2095.000	6537.600	25840.000
2096.000	6538.000	28240.000
2097.000	6538.400	31490.000
2098.000	6538.800	34390.000
2099.000	6539.200	37660.000
2100.000	6539.600	42220.000
2101.000	6540.000	47330.000
2102.000	6540.400	54560.000
2103.000	6540.800	61420.000
2104.000	6541.200	74700.000
2105.000	6541.600	87610.000
2106.000	6542.000	103940.000
2107.000	6542.400	128540.000
2108.000	6542.800	167380.000
2109.000	6543.200	208150.000
2110.000	6543.600	285350.000
2111.000	6544.000	377280.000
2112.000	6544.400	528680.000
2113.000	6544.800	794220.000
2114.000	6545.200	1230100.000
2115.000	6545.600	2640520.000
2116.000	6546.000	14307420.000
2117.000	6546.400	10489740.000
2118.000	6546.800	5804370.000
2119.000	6547.200	1179730.000
2120.000	6547.600	451250.000
2121.000	6548.000	229230.000
2122.000	6548.400	144650.000
2123.000	6548.800	113320.000
2124.000	6549.200	115910.000
2125.000	6549.600	170140.000
2126.000	6550.000	140350.000
2127.000	6550.400	110410.000
2128.000	6550.800	89840.000
2129.000	6551.200	76980.000
2130.000	6551.600	63220.000
2131.000	6552.000	53290.000
2132.000	6552.400	45860.000
2133.000	6552.800	38730.000
2134.000	6553.200	32990.000
2135.000	6553.600	30590.000
2136.000	6554.000	27820.000
2137.000	6554.400	24890.000
2138.000	6554.800	24010.000
2139.000	6555.200	21510.000
2140.000	6555.600	19950.000
2141.000	6556.000	19850.000
2142.000	6556.400	18460.000
2143.000	6556.800	16200.000
2144.000	6557.200	16120.000
2145.000	6557.600	14450.000
2146.000	6558.000	14130.000
2147.000	6558.400	13320.000
2148.000	6558.800	12870.000
2149.000	6559.200	12680.000
2150.000	6559.600	12040.000
2151.000	6560.000	11980.000
2152.000	6560.400	11340.000
2153.000	6560.800	11060.000
2154.000	6561.200	11190.000
2155.000	6561.600	11030.000
2156.000	6562.000	10030.000
2157.000	6562.400	10350.000
2158.000	6562.800	10390.000
2159.000	6563.200	10800.000
2160.000	6563.600	9640.000
2161.000	6564.000	10260.000
2162.000	6564.400	10090.000
2163.000	6564.800	9510.000
2164.000	6565.200	10340.000
2165.000	6565.600	9870.000
2166.000	6566.000	9750.000
2167.000	6566.400	9470.000
2168.000	6566.800	9980.000
2169.000	6567.200	10030.000
2170.000	6567.600	10330.000
2171.000	6568.000	9470.000
2172.000	6568.400	9420.000
2173.000	6568.800	10100.000
2174.000	6569.200	10360.000
2175.000	6569.600	10490.000
2176.000	6570.000	10690.000
2177.000	6570.400	10790.000
2178.000	6570.800	11800.000
2179.000	6571.200	12640.000
2180.000	6571.600	11970.000
2181.000	6572.000	11940.000
2182.000	6572.400	12410.000
2183.000	6572.800	14230.000
2184.000	6573.200	13950.000
2185.000	6573.600	14340.000
2186.000	6574.000	15350.000
2187.000	6574.400	15570.000
2188.000	6574.800	17030.000
2189.000	6575.200	17250.000
2190.000	6575.600	19150.000
2191.000	6576.000	20730.000
2192.000	6576.400	21770.000
2193.000	6576.800	22780.000
2194.000	6577.200	25210.000
2195.000	6577.600	27530.000
2196.000	6578.000	30740.000
2197.000	6578.400	33070.000
2198.000	6578.800	37480.000
2199.000	6579.200	42380.000
2200.000	6579.600	48000.000
2201.000	6580.000	56960.000
2202.000	6580.400	67770.000
2203.000	6580.800	84530.000
2204.000	6581.200	105460.000
2205.000	6581.600	133350.000
2206.000	6582.000	177610.000
2207.000	6582.400	232170.000
2208.000	6582.800	322100.000
2209.000	6583.200	476600.000
2210.000	6583.600	709470.000
2211.000	6584.000	1334960.000
2212.000	6584.400	6736580.000
2213.000	6584.800	13022060.000
2214.000	6585.200	8165160.000
2215.000	6585.600	992430.000
2216.000	6586.000	346560.000
2217.000	6586.400	168110.000
2218.000	6586.800	102820.000
2219.000	6587.200	73840.000
2220.000	6587.600	69460.000
2221.000	6588.000	94340.000
2222.000	6588.400	107030.000
2223.000	6588.800	79240.000
2224.000	6589.200	63630.000
2225.000	6589.600	51730.000
2226.000	6590.000	43220.000
2227.000	6590.400	37200.000
2228.000	6590.800	31090.000
2229.000	6591.200	26460.000
2230.000	6591.600	22520.000
2231.000	6592.000	20010.000
2232.000	6592.400	18090.000
2233.000	6592.800	17540.000
2234.000	6593.200	15280.000
2235.000	6593.600	14650.000
2236.000	6594.000	14880.000
2237.000	6594.400	14080.000
2238.000	6594.800	13930.000
2239.000	6595.200	11890.000
2240.000	6595.600	11390.000
2241.000	6596.000	10630.000
2242.000	6596.400	9730.000
2243.000	6596.800	9970.000
2244.000	6597.200	9790.000
2245.000	6597.600	9010.000
2246.000	6598.000	8820.000
2247.000	6598.400	9000.000
2248.000	6598.800	8490.000
2249.000	6599.200	8310.000
2250.000	6599.600	7810.000
2251.000	6600.000	8040.000
